Q,I,S
0.505,0.18269198920744648,0.25661515371315424
0.515,0.22951329759527964,0.32684474704499655
0.525,0.31897701857639116,0.45684325566578154
0.535,0.33088583109921565,0.4766044846775585
0.545,0.12518587555343053,0.17980447331886706
0.555,0.24739432654125573,0.35202718166704916
0.5650000000000001,0.1750896386347695,0.2505677076301959
0.5750000000000001,0.2623937640243743,0.38657918733662305
0.5850000000000001,0.4457794121799678,0.6573535832309982
0.5950000000000001,0.3256187756932218,0.468576562033266
0.6050000000000001,0.3217625546706032,0.45898298794016407
0.6150000000000001,0.36352265470751255,0.5407345951777603
0.6250000000000001,0.4804837321312464,0.7110641758938907
0.6350000000000001,0.7315498954286642,1.1023170887968796
0.6450000000000001,0.4632514928978624,0.6868384399347958
0.6550000000000001,0.24010240050219783,0.3541186062233009
0.6650000000000001,0.4142341566985829,0.6166773924398286
0.6750000000000002,0.35429469691456883,0.52762921145082
0.6850000000000002,0.5595089856049197,0.8376066396034795
0.6950000000000002,0.5330480755153877,0.7972632565231287
0.7050000000000002,0.7698511958151626,1.1723141361132203
0.7150000000000002,0.6344940599678216,0.9677778475316334
0.7250000000000002,0.5575528748837626,0.8480370733252391
0.7350000000000002,0.622834715883661,0.9553341239408377
0.7450000000000002,0.6818500220237528,1.0433845705639022
0.7550000000000002,0.6634560349721824,1.0130004171945337
0.7650000000000002,0.2980606589219623,0.4195762450666686
0.7750000000000002,0.8123688294612078,1.2674396108706896
0.7850000000000003,0.7413995343354947,1.14262140642913
0.7950000000000003,0.630965631271857,0.9655914636484961
0.8050000000000003,0.5315399863515365,0.803159305395916
0.8150000000000003,0.42469093895869786,0.6458008584336209
0.8250000000000003,0.5365747693729818,0.8323951689972983
0.8350000000000003,0.5646217681025637,0.8634147709533153
0.8450000000000003,0.9078787745695587,1.4252441292739908
0.8550000000000003,0.7687515271623013,1.2105652347049791
0.8650000000000003,0.6668427406148322,1.043234145111018
0.8750000000000003,0.6667874663054794,1.0326965660917649
0.8850000000000003,0.6527939214187564,1.0058576581697807
0.8950000000000004,0.5167435371092544,0.7793165551309895
0.9050000000000004,0.8771438085953127,1.376424503358454
0.9150000000000004,0.6443220635034048,1.0084721510663819
0.9250000000000004,0.5357170256491314,0.825411116250522
0.9350000000000004,0.618148052565642,0.9793435756221757
0.9450000000000004,0.4093779725359229,0.6197086472828627
0.9550000000000004,0.49309680625331515,0.7420167989988808
0.9650000000000004,0.525830904396589,0.7978052759182365
0.9750000000000004,0.4918256113434005,0.7357603778463895
0.9850000000000004,0.49874870599178467,0.7542047165005346
0.9950000000000004,0.5629650876326249,0.8553299572049077
1.0050000000000003,0.42729512066141057,0.6408186420238402
1.0150000000000003,0.6127275391484029,0.968688335756048
1.0250000000000004,0.6281820347370544,0.9673291221521592
1.0350000000000004,0.6182240854229133,0.9442740550711286
1.0450000000000004,0.6091883633614474,0.9165995349439942
1.0550000000000004,0.5057328316844296,0.7791765648163629
1.0650000000000004,0.5061688757884324,0.7591539983936066
1.0750000000000004,0.5051954099504034,0.7638751628124549
1.0850000000000004,0.6772418960237756,1.0441233476062386
1.0950000000000004,0.7492780883941516,1.2094473205613636
1.1050000000000004,0.7061447865442488,1.116570271533726
1.1150000000000004,0.6608257584593127,0.996680663368191
1.1250000000000004,0.8096554281425288,1.2715304666209102
1.1350000000000005,0.6555301038886739,1.0055454646706008
1.1450000000000005,0.6291842658699243,0.9690811808244371
1.1550000000000005,0.5874900659077119,0.8903771682414399
1.1650000000000005,0.6064093965677748,0.9145794094143043
1.1750000000000005,0.5735005287001855,0.8776287093058267
1.1850000000000005,0.6721746576686124,1.0422073810311838
1.1950000000000005,0.6790872474930738,1.0501116956672816
1.2050000000000005,0.7123906983421836,1.0985067843476066
1.2150000000000005,0.6827250801937292,1.0622292023060345
1.2250000000000005,0.675222331259129,1.0386508501864005
1.2350000000000005,0.8122973946567638,1.2754830574082618
1.2450000000000006,0.6875551593506593,1.0344893966566167
1.2550000000000006,0.5790181064783534,0.8763196566521232
1.2650000000000006,0.7896241150881824,1.2486963174397534
1.2750000000000006,0.6443798476051961,0.9836790262656676
1.2850000000000006,0.7242191959748666,1.137450145262773
1.2950000000000006,0.7595161709299825,1.166936517580719
1.3050000000000006,0.6897441484157535,1.0821963637118985
1.3150000000000006,0.7933695110030471,1.2963755885193247
1.3250000000000006,0.8144445917507602,1.3017307147511106
1.3350000000000006,0.6995412147951812,1.1333690971010821
1.3450000000000006,0.7506021109798219,1.2428156699377093
1.3550000000000006,0.7113243092519678,1.1652674729340584
1.3650000000000007,0.6883475443743782,1.0958930964094942
1.3750000000000007,0.6549502249356078,1.0667008935717817
1.3850000000000007,0.7690013761045924,1.270792348219338
1.3950000000000007,0.7772840982734895,1.2960004114236257
1.4050000000000007,0.8024912085929442,1.346275553449269
1.4150000000000007,0.7228526542845162,1.1921595193841905
1.4250000000000007,0.7273307678841419,1.2445817427800376
1.4350000000000007,0.7663249126216397,1.2805333369633678
1.4450000000000007,0.8710104787330717,1.4915372777390479
1.4550000000000007,0.7428494112828598,1.3328487180653876
1.4650000000000007,0.7120505315810626,1.2357379779225752
1.4750000000000008,0.5908623901879805,1.021653647226538
1.4850000000000008,0.6820941090531012,1.2273140056797942
1.4950000000000008,0.6721634207271767,1.188452512216874
1.5050000000000008,0.6303337103720483,1.1015653596030022
1.5150000000000008,0.6757209805538495,1.208796934444687
1.5250000000000008,0.6191303194772967,1.1395662172351175
1.5350000000000008,0.6011189889065092,1.0895986906219761
1.5450000000000008,0.6187513673674236,1.1175912768302416
1.5550000000000008,0.6518621621189881,1.1874190719232809
1.5650000000000008,0.622692794697604,1.1381573606815076
1.5750000000000008,0.5546236750485463,0.9881028258954636
1.5850000000000009,0.6008376343862395,1.1126026638222046
1.5950000000000009,0.6295274183073981,1.183776247318427
1.6050000000000009,0.6492137486002124,1.2039944130861708
1.6150000000000009,0.6391782604287404,1.2443146034965014
1.6250000000000009,0.5218600371529822,0.9793244786934344
1.635000000000001,0.5662834692256696,1.1009499576436883
1.645000000000001,0.5980401971817351,1.1524396098670153
1.655000000000001,0.5555338211738873,1.0922939208028049
1.665000000000001,0.517675399534289,1.0086112863989922
1.675000000000001,0.5153790899688717,1.027665549103136
1.685000000000001,0.5430096089103321,1.0862615340104067
1.695000000000001,0.5778009181849214,1.1611485892074056
1.705000000000001,0.573486301971734,1.173543207373664
1.715000000000001,0.5445149389003584,1.0991214488480936
1.725000000000001,0.4994660790970236,1.0183435724898964
1.735000000000001,0.5357463167169891,1.1089111806116743
1.745000000000001,0.5076360745441131,1.0594771349082561
1.755000000000001,0.4926857802050511,1.0131887393516061
1.765000000000001,0.4480433577278874,0.9247151659509756
1.775000000000001,0.43382624241616996,0.8839603939705516
1.785000000000001,0.4372589656231422,0.9006697915824042
1.795000000000001,0.41118043242043584,0.8490964632823762
1.805000000000001,0.4169629754899371,0.8597596041873519
1.815000000000001,0.45121846422651996,0.9424680579161666
1.825000000000001,0.45808310218359094,0.9709912554414347
1.835000000000001,0.4443014437822988,0.9315571262542139
1.845000000000001,0.432774060314729,0.9239620414956908
1.855000000000001,0.42402983258921634,0.9256639153453842
1.865000000000001,0.4021196881346865,0.8748906658110073
1.875000000000001,0.3899774044516093,0.8394114810420347
1.8850000000000011,0.4075689370812549,0.8824381422092135
1.8950000000000011,0.35939059451203387,0.770523109166021
1.9050000000000011,0.3607746059289501,0.7773802593290972
1.9150000000000011,0.37499147317854115,0.818634778952265
1.9250000000000012,0.38514905767624247,0.8407996752823235
1.9350000000000012,0.3886994931507871,0.8423885342406362
1.9450000000000012,0.3951431161080667,0.8878485070155827
1.9550000000000012,0.35447544140397147,0.7744355509744293
1.9650000000000012,0.354781454285779,0.7721404775698087
1.9750000000000012,0.34644213480699115,0.7737703298648938
1.9850000000000012,0.3461419247961928,0.775532521193721
1.9950000000000012,0.3536908729628481,0.8028877786897518
2.0050000000000012,0.3526341251491085,0.7835413206786888
2.0150000000000015,0.36320341357551766,0.8200124557530243
2.0250000000000012,0.3538617511260443,0.7948552342650617
2.035000000000001,0.35006468138788976,0.7921151332679495
2.0450000000000013,0.37536325047596586,0.8532585877707776
2.0550000000000015,0.35079025837843486,0.8017574249017317
2.0650000000000013,0.35831338441117494,0.8175944946298831
2.075000000000001,0.3362915012500692,0.7700295383933823
2.0850000000000013,0.33696916718733966,0.7793134353354213
2.0950000000000015,0.34441956311272176,0.8054063612048648
2.1050000000000013,0.3510695917582003,0.8106041027060357
2.115000000000001,0.3348341280109401,0.7725026772752356
2.1250000000000013,0.31428408993224793,0.7364992084606764
2.1350000000000016,0.33684063510581036,0.7855468240063551
2.1450000000000014,0.33993571441156095,0.7940335912182356
2.155000000000001,0.33639056156694774,0.7846884259690811
2.1650000000000014,0.34080943580041817,0.8213607126337229
2.1750000000000016,0.32861961170878257,0.7885814123737546
2.1850000000000014,0.3373159337705468,0.8123230446954186
2.195000000000001,0.318301502160121,0.7676037162557983
2.2050000000000014,0.32411053219223046,0.7894743606625596
2.2150000000000016,0.32498994380435164,0.7977994058242357
2.2250000000000014,0.32248075383260166,0.7967808184661105
2.235000000000001,0.30676067351369385,0.7616206143005192
2.2450000000000014,0.32573746858254016,0.7978758293173666
2.2550000000000017,0.32893087023918915,0.8208070318126954
2.2650000000000015,0.3166392459159918,0.7921042002150924
2.2750000000000012,0.3282859924932893,0.8231574097534067
2.2850000000000015,0.3135741043235706,0.792502716648004
2.2950000000000017,0.3170182539387155,0.8105993333256044
2.3050000000000015,0.3115242765570792,0.8004231823210651
2.3150000000000013,0.3093699862570096,0.7869067218106753
2.3250000000000015,0.30084368737312195,0.7712873899527768
2.3350000000000017,0.30506193701764683,0.7950465191839805
2.3450000000000015,0.3086533091531305,0.8136075161881589
2.3550000000000013,0.304008634660904,0.8103454589449006
2.3650000000000015,0.30948617860259087,0.8187963225523093
2.3750000000000018,0.305261435564131,0.8094494318553831
2.3850000000000016,0.2957675077854258,0.7933222526731646
2.3950000000000014,0.3082039416980111,0.8294713548563925
2.4050000000000016,0.3079772715954317,0.8342258074845171
2.415000000000002,0.30034783038453844,0.8121932002694521
2.4250000000000016,0.29847912098168594,0.8151258287247692
2.4350000000000014,0.2963621368997877,0.8262265853793495
2.4450000000000016,0.29136034036605446,0.8118498595055607
2.455000000000002,0.28616247143295015,0.7914416648742415
2.4650000000000016,0.2875199773428736,0.8035901508880823
2.4750000000000014,0.3002777906178204,0.8485046457153121
2.4850000000000017,0.2925207463547153,0.8320320207956734
2.495000000000002,0.2936718145690937,0.8372922102293239
