Q,I,S
0.505,0.25858030109208013,0.3596012144473471
0.515,0.25363129509559595,0.36648438795032995
0.525,0.21121753764578122,0.29989398478043466
0.535,0.20674419985343684,0.2979075110409273
0.545,0.39097125519191256,0.5642577226593162
0.555,0.3288307826864241,0.4697731727051665
0.5650000000000001,0.19491848522621144,0.2774402000592709
0.5750000000000001,0.23538626273884536,0.3343016730979322
0.5850000000000001,0.3682784021890117,0.5385000637365241
0.5950000000000001,0.32188885555547414,0.4777702050271114
0.6050000000000001,0.44196649238220354,0.6438326270677625
0.6150000000000001,0.40817581626421257,0.6016575047489416
0.6250000000000001,0.4996591559840643,0.7385240315882898
0.6350000000000001,0.36698793192509754,0.5451440460241768
0.6450000000000001,0.6312034295579837,0.9409229568779791
0.6550000000000001,0.5456677529184155,0.8216383891836302
0.6650000000000001,0.5891577387689295,0.8866483397282304
0.6750000000000002,0.6976929353082709,1.0598949610438677
0.6850000000000002,0.5756859375656603,0.8730132425615584
0.6950000000000002,0.4466542949584645,0.6706496032670619
0.7050000000000002,0.7457319139713071,1.14395207908604
0.7150000000000002,0.49550462153865843,0.7468491530502317
0.7250000000000002,0.521724518378845,0.7949993961945993
0.7350000000000002,0.5859125431331288,0.8884333876344601
0.7450000000000002,0.7877138190663269,1.220817017974904
0.7550000000000002,1.0524343446059103,1.6276894264431876
0.7650000000000002,0.751268230873439,1.1611135207022971
0.7750000000000002,0.5673500235067679,0.8678446293080002
0.7850000000000003,0.7938892918430742,1.2295802035626668
0.7950000000000003,0.8496997721149478,1.323994407199202
0.8050000000000003,0.7612036224318657,1.1858638184803176
0.8150000000000003,0.6067905440342322,0.9453128654945017
0.8250000000000003,0.6104465451097535,0.9421608516029158
0.8350000000000003,0.4933694795696542,0.766955682699833
0.8450000000000003,0.5273434389798765,0.8025635020500601
0.8550000000000003,0.41368621059414307,0.6280220345124993
0.8650000000000003,0.5331477177973346,0.8295031733023336
0.8750000000000003,0.5244096798024825,0.8215242081007087
0.8850000000000003,0.5360116010637194,0.8138111304672462
0.8950000000000004,0.569571140205799,0.8893864619221135
0.9050000000000004,0.4807520938538698,0.7391278639301279
0.9150000000000004,0.5611170560282636,0.8761597011458415
0.9250000000000004,0.531368669927654,0.8089917728689385
0.9350000000000004,0.45195814872344475,0.6982779766740531
0.9450000000000004,0.4646111575299714,0.7242940957147298
0.9550000000000004,0.6098096250620592,0.947134452596262
0.9650000000000004,0.5108817070892652,0.7717275429774079
0.9750000000000004,0.5761910388857304,0.8991090116211168
0.9850000000000004,0.6569565266559196,1.0429287435213026
0.9950000000000004,0.5029451464407908,0.7695172812227818
1.0050000000000003,0.6346897790121998,0.9900534377216367
1.0150000000000003,0.5366104259303043,0.8201439752524053
1.0250000000000004,0.5091548791943634,0.7796172365452508
1.0350000000000004,0.44399834062302856,0.6495075575188342
1.0450000000000004,0.5208795062616911,0.7661738703151646
1.0550000000000004,0.5364828741434535,0.8204559526917864
1.0650000000000004,0.5163321790355252,0.7666132751113341
1.0750000000000004,0.620587124509659,0.9531774347806514
1.0850000000000004,0.7101938302035239,1.0963322455362579
1.0950000000000004,0.5561748139276,0.8406489498254615
1.1050000000000004,0.6819137834424202,1.0645458021895513
1.1150000000000004,0.6137087003756154,0.942718359067346
1.1250000000000004,0.5842777367594165,0.9020153755650927
1.1350000000000005,0.581289564095522,0.8885248984199345
1.1450000000000005,0.6092460065326348,0.9004828983634406
1.1550000000000005,0.5680511249105797,0.8474448362168341
1.1650000000000005,0.6058846180364803,0.9424792419648002
1.1750000000000005,0.6727429908774476,1.0327556523511878
1.1850000000000005,0.6427523975847488,0.9948009454768189
1.1950000000000005,0.686458540746247,1.0528236055119433
1.2050000000000005,0.6212781012697021,0.9140777163053191
1.2150000000000005,0.7283494311034432,1.149624205463372
1.2250000000000005,0.6846448726842278,1.0524438707090829
1.2350000000000005,0.761160835960513,1.1534988196671343
1.2450000000000006,0.7506165320113349,1.1864744612320228
1.2550000000000006,0.7564207512159066,1.161319485569866
1.2650000000000006,0.8159742043061186,1.3350121899500085
1.2750000000000006,0.6631649992953711,1.0696084545562337
1.2850000000000006,0.661590646063312,1.0626887439537196
1.2950000000000006,0.6343984497570905,0.992226182643706
1.3050000000000006,0.7077458014744061,1.1291300604450427
1.3150000000000006,0.6595420490145463,1.0544600699262756
1.3250000000000006,0.7928064959366854,1.2954115080765067
1.3350000000000006,0.7062983474809698,1.1131960307573225
1.3450000000000006,0.8259610638546854,1.3428125753930282
1.3550000000000006,0.7777597521037546,1.2605079249064257
1.3650000000000007,0.7465389241359562,1.209855862668189
1.3750000000000007,0.8417517585030477,1.4493538880853203
1.3850000000000007,0.7452265171133794,1.2622452566239475
1.3950000000000007,0.811912985137746,1.3835776003963127
1.4050000000000007,0.8654461872830167,1.4790751854146331
1.4150000000000007,0.777281858942326,1.3537869555387207
1.4250000000000007,0.648942526764154,1.1224209570561086
1.4350000000000007,0.6686457564201966,1.1219174981626587
1.4450000000000007,0.7575517931040524,1.296922988699996
1.4550000000000007,0.7653282434416705,1.334127216436097
1.4650000000000007,0.6806739380055582,1.1871625639472954
1.4750000000000008,0.6878460909684476,1.2113356366539603
1.4850000000000008,0.8166149225633823,1.4867591114989345
1.4950000000000008,0.7144555177655093,1.2581266258554749
1.5050000000000008,0.6564698782235834,1.154684871069744
1.5150000000000008,0.6073401382690348,1.0673475633086364
1.5250000000000008,0.5957634988063081,1.0662354151692195
1.5350000000000008,0.6279856066279647,1.1275860081463087
1.5450000000000008,0.6514277482024844,1.1941127561580402
1.5550000000000008,0.6520964497767442,1.192331336031105
1.5650000000000008,0.6395252342942532,1.1625961807816054
1.5750000000000008,0.6754304943524122,1.2868031091620638
1.5850000000000009,0.5824319665228158,1.103628824935531
1.5950000000000009,0.6022026530458595,1.1326074003001516
1.6050000000000009,0.6575836962797803,1.2564160847853318
1.6150000000000009,0.5825052000650159,1.0884657239627191
1.6250000000000009,0.5410645795855512,1.0299694315396009
1.635000000000001,0.6137812227193106,1.1844755640023041
1.645000000000001,0.6235163586465533,1.243951784140305
1.655000000000001,0.5764732739925111,1.1205827877979924
1.665000000000001,0.5792113449709765,1.1536253493691184
1.675000000000001,0.5687051304607705,1.118946363113783
1.685000000000001,0.5344163117428989,1.0477336473637133
1.695000000000001,0.5084114126330831,1.0058559060127992
1.705000000000001,0.5513279365562086,1.1179238467743593
1.715000000000001,0.5503882642952771,1.134977114784984
1.725000000000001,0.4821314557185182,0.9829015625291097
1.735000000000001,0.4456632095728927,0.9096113768769765
1.745000000000001,0.4556587007199507,0.9125175332037871
1.755000000000001,0.4511260309910613,0.9249328297039094
1.765000000000001,0.4484558600221194,0.9263121797555561
1.775000000000001,0.42725663084854415,0.8792967460712429
1.785000000000001,0.4426631437130741,0.9205018652459801
1.795000000000001,0.4372779057275144,0.9062593399642681
1.805000000000001,0.4419464251630821,0.941674971636164
1.815000000000001,0.4169039555624175,0.8751445612577974
1.825000000000001,0.4097658741854963,0.864661008196459
1.835000000000001,0.4015168184517475,0.8567212442471197
1.845000000000001,0.39611867544698703,0.8425223319031891
1.855000000000001,0.41573819713258786,0.899263886314632
1.865000000000001,0.42070109199234856,0.9107895583023343
1.875000000000001,0.39039516403352004,0.847283989902491
1.8850000000000011,0.38699897021279495,0.8369260787417149
1.8950000000000011,0.365867496435767,0.7943885549152238
1.9050000000000011,0.3875616377438925,0.8607336769095941
1.9150000000000011,0.3728948192913545,0.8038596095976996
1.9250000000000012,0.34558432986396953,0.7563848315932049
1.9350000000000012,0.369082418927429,0.8080960849415542
1.9450000000000012,0.3729941549809775,0.8325655388238414
1.9550000000000012,0.35389409812282063,0.7923314569324378
1.9650000000000012,0.3626042264226151,0.7980972302375731
1.9750000000000012,0.3510516375380958,0.7819596001367041
1.9850000000000012,0.3548525087644083,0.7995972420530948
1.9950000000000012,0.3566214263140544,0.7971036887754904
2.0050000000000012,0.37014978408977817,0.8501354642762483
2.0150000000000015,0.3659054413589755,0.8393391160127535
2.0250000000000012,0.34430972784986313,0.7756963079530732
2.035000000000001,0.3326524363712697,0.755439379366325
2.0450000000000013,0.3462272716977619,0.7910027239291438
2.0550000000000015,0.3387768087109915,0.7713638823806023
2.0650000000000013,0.3309959371077944,0.7566635479352085
2.075000000000001,0.33007499485427355,0.7625637167407809
2.0850000000000013,0.33287420521629923,0.7758716810953927
2.0950000000000015,0.33756050829804446,0.778612168863003
2.1050000000000013,0.32072118480197437,0.749298843145579
2.115000000000001,0.32947242866470866,0.7700514290407664
2.1250000000000013,0.3301745729505759,0.7850692401643369
2.1350000000000016,0.3216509504423144,0.7586413483625813
2.1450000000000014,0.33165266726507325,0.7793212607202739
2.155000000000001,0.3290460676899938,0.7754498218592493
2.1650000000000014,0.33134298302559034,0.795300018468624
2.1750000000000016,0.3289543770393786,0.8054029293429298
2.1850000000000014,0.33044791504545007,0.7967766538570245
2.195000000000001,0.3325122749416791,0.8114911641841952
2.2050000000000014,0.32868669464799144,0.8088211043187451
2.2150000000000016,0.3340927020668222,0.8325325379676055
2.2250000000000014,0.31054046195105706,0.7724424661922905
2.235000000000001,0.30796137359817805,0.7637036040210503
2.2450000000000014,0.32911892302143936,0.8211895824870427
2.2550000000000017,0.3324273584932023,0.8377697350602102
2.2650000000000015,0.3118343815660965,0.79207332828834
2.2750000000000012,0.3077626011629821,0.7749969514644456
2.2850000000000015,0.2972481338564076,0.757354457562197
2.2950000000000017,0.3104429904329937,0.8094605473830766
2.3050000000000015,0.30247973239552445,0.7813178175428908
2.3150000000000013,0.30777250912311904,0.7981309898850117
2.3250000000000015,0.3078344138694784,0.8041696453099304
2.3350000000000017,0.3116988563671173,0.8220720807098807
2.3450000000000015,0.293977940936747,0.7854242815878717
2.3550000000000013,0.301299044335979,0.8014770582593773
2.3650000000000015,0.31619207798360643,0.8466845850776571
2.3750000000000018,0.30674056394764787,0.824943403750964
2.3850000000000016,0.3037752538671934,0.8180996901803675
2.3950000000000014,0.30554041794104253,0.8333616476365017
2.4050000000000016,0.29925170616260033,0.818446079001053
2.415000000000002,0.30723246108794816,0.8355234093381455
2.4250000000000016,0.3021618236686026,0.8466641444088553
2.4350000000000014,0.29543050849938063,0.8303788496798318
2.4450000000000016,0.2938651798859337,0.8154400681217956
2.455000000000002,0.2849422760783803,0.8017472637707376
2.4650000000000016,0.29222626458907114,0.8239612173350809
2.4750000000000014,0.2878190650691132,0.8177845346636017
2.4850000000000017,0.2823797131721787,0.8123751206631674
2.495000000000002,0.29041851553520054,0.8421241699393228
