Q,I,S
0.505,0.14432636498077145,0.19809834816477728
0.515,0.23063112239694786,0.31464535360385393
0.525,0.260520539932632,0.3709930899923227
0.535,0.3107667842885797,0.44195571548792506
0.545,0.33553015624781324,0.48116913255564137
0.555,0.2089066242065991,0.29739687105723855
0.5650000000000001,0.31975730173146183,0.4483068403852737
0.5750000000000001,0.3832086107775266,0.5535079376061053
0.5850000000000001,0.4541230621644773,0.6598503097885619
0.5950000000000001,0.6368729158092035,0.9302528788119598
0.6050000000000001,0.3855612126166234,0.5646471152934192
0.6150000000000001,0.6026131623918752,0.8875818456160097
0.6250000000000001,0.477159438591909,0.7030973851014397
0.6350000000000001,0.5633079690436994,0.8347431019616507
0.6450000000000001,0.39890529859642243,0.5880568312821887
0.6550000000000001,0.4180524989505123,0.6136956516142097
0.6650000000000001,0.4922870786599778,0.7244853589791811
0.6750000000000002,0.5915040659315548,0.8778794006414504
0.6850000000000002,0.4424065564038024,0.6598435589819063
0.6950000000000002,0.26683476650786614,0.38926405045990126
0.7050000000000002,0.6524920354989107,0.9897694006156358
0.7150000000000002,0.6851984688824448,1.0296973798748703
0.7250000000000002,0.868163845808306,1.3278149733225464
0.7350000000000002,0.7071925301710577,1.0690312969365787
0.7450000000000002,0.5876956051757228,0.8904636614984842
0.7550000000000002,0.42425217717506536,0.6335560777589522
0.7650000000000002,0.6674521261476088,1.0196748912248688
0.7750000000000002,0.6820628246291998,1.0360415308399413
0.7850000000000003,0.8896596053634804,1.3651343042637998
0.7950000000000003,0.4777042756489732,0.7270054147693245
0.8050000000000003,0.4197179974228929,0.6286931975319641
0.8150000000000003,0.6015892068833161,0.9275237041500196
0.8250000000000003,0.6394271661188888,0.9826427851256101
0.8350000000000003,0.49097896181649836,0.7468264380953097
0.8450000000000003,0.7456611648776927,1.154722356896359
0.8550000000000003,0.4433346171997923,0.6652653398883809
0.8650000000000003,0.38895745321782066,0.5789659977028515
0.8750000000000003,0.43076266902336136,0.6344641211989163
0.8850000000000003,0.4854746804214823,0.723226800909375
0.8950000000000004,0.5970134039256326,0.9048028946160531
0.9050000000000004,0.5594400904360991,0.854072240867132
0.9150000000000004,0.48118390368650515,0.7285833717776304
0.9250000000000004,0.46084070874321914,0.6793650719139275
0.9350000000000004,0.5745770966330108,0.880210922843825
0.9450000000000004,0.5311614616659619,0.8024419860731092
0.9550000000000004,0.5619293301152678,0.8463934566866317
0.9650000000000004,0.5853962380561848,0.8949933060926718
0.9750000000000004,0.5202946549208013,0.8023719128399995
0.9850000000000004,0.4730918129359322,0.7105713545890769
0.9950000000000004,0.4786892806850465,0.7242950450721678
1.0050000000000003,0.5582709741511824,0.837022212304735
1.0150000000000003,0.5309235899196256,0.8063753539492585
1.0250000000000004,0.5369916313892431,0.8315066715133814
1.0350000000000004,0.6049443288302991,0.9310343522300377
1.0450000000000004,0.4338601795692724,0.6490754057171332
1.0550000000000004,0.49171193366962873,0.7436916951224255
1.0650000000000004,0.6335858513231717,0.9434854997842193
1.0750000000000004,0.6252758376565912,0.955200005931013
1.0850000000000004,0.5818376362705054,0.9069484812270251
1.0950000000000004,0.5667346387019773,0.8618765672926478
1.1050000000000004,0.6031734624877297,0.9133956478533091
1.1150000000000004,0.6428496785188365,0.9653795148880272
1.1250000000000004,0.6486886500319621,0.9833658806107262
1.1350000000000005,0.5460435178094976,0.8128146832905011
1.1450000000000005,0.5882921779817732,0.8682078486609505
1.1550000000000005,0.6118409354321103,0.9257659992782569
1.1650000000000005,0.6172825934972798,0.9504687779814014
1.1750000000000005,0.7783505281901291,1.2171599539391527
1.1850000000000005,0.7274968237428203,1.1259322764229864
1.1950000000000005,0.6923925039369673,1.0570086772845042
1.2050000000000005,0.7661945599077473,1.1652413001598996
1.2150000000000005,0.6964266094190544,1.0587119396278213
1.2250000000000005,0.7336098201904537,1.1027145788004373
1.2350000000000005,0.7379588317434184,1.1560911863534789
1.2450000000000006,0.7723189237210641,1.1612818338502293
1.2550000000000006,0.7486516255576264,1.1389717546327567
1.2650000000000006,0.7912656800647256,1.2178004250070629
1.2750000000000006,0.821211727331448,1.2944169894318596
1.2850000000000006,0.7205416069264733,1.108663334399175
1.2950000000000006,0.7941721940839662,1.248256825520155
1.3050000000000006,0.6939258264363514,1.0703477512083197
1.3150000000000006,0.7451736067535835,1.1693238622008528
1.3250000000000006,0.6938712090799218,1.1087080389872357
1.3350000000000006,0.7405412864038334,1.173823430037933
1.3450000000000006,0.8214521552982034,1.3246584390466698
1.3550000000000006,0.7472729274902573,1.2261504628595778
1.3650000000000007,0.7907617764429418,1.326129894674389
1.3750000000000007,0.8381471843797436,1.376689510120638
1.3850000000000007,0.7584363387824834,1.2217200964205144
1.3950000000000007,0.7288082968938653,1.2142301583401456
1.4050000000000007,0.7823570311277953,1.3386072273731142
1.4150000000000007,0.7586541339018623,1.262846136939972
1.4250000000000007,0.7388618952613397,1.2407644838081444
1.4350000000000007,0.6541792955362556,1.1096238789761101
1.4450000000000007,0.6788198862685814,1.1258320715558607
1.4550000000000007,0.7245630328726905,1.2302252397219537
1.4650000000000007,0.7700311204710723,1.309848632747839
1.4750000000000008,0.6129103008921757,1.0438828977380412
1.4850000000000008,0.7098444188525898,1.245720122314395
1.4950000000000008,0.719069207411482,1.2590935627758792
1.5050000000000008,0.7251826319884936,1.272727033554218
1.5150000000000008,0.7373920805044542,1.3348426454184543
1.5250000000000008,0.6994575895452992,1.2688347966163283
1.5350000000000008,0.7525489384725779,1.3716413630278366
1.5450000000000008,0.6501354209823886,1.1839891710506416
1.5550000000000008,0.6981579837189543,1.2997139689381092
1.5650000000000008,0.6351867221746852,1.1807826931551033
1.5750000000000008,0.6024443669595418,1.1066185095573018
1.5850000000000009,0.6259121379376775,1.169340658032454
1.5950000000000009,0.60719044648508,1.144854754838875
1.6050000000000009,0.6438259902262942,1.2016561139223707
1.6150000000000009,0.574230913432536,1.089294333075722
1.6250000000000009,0.5967046078958803,1.1510419999938908
1.635000000000001,0.5323688083407293,1.0055474199565901
1.645000000000001,0.5301972777381151,1.0215834309267218
1.655000000000001,0.5144287897547941,0.9790563897441655
1.665000000000001,0.5632026401738706,1.1087686144155577
1.675000000000001,0.5226610962259898,1.0283771919336633
1.685000000000001,0.5104524528794248,0.9950705712716296
1.695000000000001,0.49326378222326395,0.9450230682580814
1.705000000000001,0.5460797751833525,1.0791590859290312
1.715000000000001,0.5102800483195546,1.0154027949929105
1.725000000000001,0.4676122951203954,0.9314719643670486
1.735000000000001,0.47704959881753245,0.957741081127129
1.745000000000001,0.4747068414222118,0.9607082277817208
1.755000000000001,0.4736031564643552,0.9688518399323631
1.765000000000001,0.45751749817617776,0.9357998321758049
1.775000000000001,0.4618894847122378,0.9551023692970434
1.785000000000001,0.4494517876415175,0.9391006329820162
1.795000000000001,0.43576669156843595,0.8987890393879207
1.805000000000001,0.4294865430005548,0.8854121635765272
1.815000000000001,0.4201801923133355,0.8823311282186121
1.825000000000001,0.43558676136281077,0.9223312618294448
1.835000000000001,0.4346530398205767,0.9111025125993786
1.845000000000001,0.39464105456337456,0.8152473014906223
1.855000000000001,0.40758581349272655,0.8625847382559746
1.865000000000001,0.4140694593818707,0.8767859202536458
1.875000000000001,0.37630911621718244,0.7988828237170614
1.8850000000000011,0.39321825945878736,0.8463890163113529
1.8950000000000011,0.3838554718592751,0.8237230880755132
1.9050000000000011,0.38182309079675936,0.8220301041317477
1.9150000000000011,0.4102026210623622,0.8820575153229024
1.9250000000000012,0.39075768991986015,0.8545727142358346
1.9350000000000012,0.39390929563596355,0.8626732424454652
1.9450000000000012,0.3762595015363336,0.8301005046865567
1.9550000000000012,0.37659319687473936,0.8309778642444026
1.9650000000000012,0.3734158593908121,0.8058155430570721
1.9750000000000012,0.35466925511201336,0.7704419267182873
1.9850000000000012,0.36310071111660636,0.7994663954334016
1.9950000000000012,0.3427707036839351,0.7495840778186508
2.0050000000000012,0.34399631576085926,0.7563769367634946
2.0150000000000015,0.3438195370192756,0.7612142189512766
2.0250000000000012,0.3505111706684406,0.7856231840731641
2.035000000000001,0.3618220859317499,0.8046776937812182
2.0450000000000013,0.34476276765822067,0.785051193546978
2.0550000000000015,0.3547355523418382,0.809521225127611
2.0650000000000013,0.34572622637940004,0.7825444874850394
2.075000000000001,0.3437863557710381,0.7835639388718432
2.0850000000000013,0.3467190066588634,0.8092432368909039
2.0950000000000015,0.34013312636958437,0.7757084838664294
2.1050000000000013,0.32281843773579233,0.7500588711775376
2.115000000000001,0.34007360602342895,0.793764843064621
2.1250000000000013,0.33992985075639065,0.8004771480234422
2.1350000000000016,0.3347591195921774,0.7904997648640246
2.1450000000000014,0.33091094003753435,0.7807510006837838
2.155000000000001,0.32908414204154546,0.7831230034068903
2.1650000000000014,0.33137733561870536,0.7877309888971464
2.1750000000000016,0.337950494796178,0.8149937806075885
2.1850000000000014,0.33170025235559086,0.7874075621666451
2.195000000000001,0.325944518515061,0.7858574117341098
2.2050000000000014,0.32734857546532137,0.7956345190942958
2.2150000000000016,0.32592161281456655,0.7975898975417247
2.2250000000000014,0.328773325871723,0.8025020016342567
2.235000000000001,0.3094039094921676,0.7529328652114411
2.2450000000000014,0.3088813512540078,0.7660169503493663
2.2550000000000017,0.31071236248153455,0.775340516572361
2.2650000000000015,0.31209443199759057,0.7815315921815688
2.2750000000000012,0.3090175820936436,0.7740901398857404
2.2850000000000015,0.3068086121226363,0.7584734559873291
2.2950000000000017,0.3112892303608104,0.7875570723511764
2.3050000000000015,0.30950891735373254,0.7784951338593866
2.3150000000000013,0.315535046517701,0.8008713481397367
2.3250000000000015,0.31675150111748124,0.8121554367921107
2.3350000000000017,0.3113665863594497,0.8140277162017802
2.3450000000000015,0.31279748494490106,0.8067617074202351
2.3550000000000013,0.3093573477241317,0.8111533884322324
2.3650000000000015,0.30649487388585156,0.8128305961475286
2.3750000000000018,0.31037406480904545,0.830022314288125
2.3850000000000016,0.3048069348372699,0.8077192910540117
2.3950000000000014,0.30804847976310884,0.826638842776263
2.4050000000000016,0.30763663675750286,0.828806673745772
2.415000000000002,0.3031027119217066,0.8207691592673219
2.4250000000000016,0.3004714984900619,0.8146370629849062
2.4350000000000014,0.3062573744631587,0.8438757469574758
2.4450000000000016,0.2980585691382878,0.8141723763940706
2.455000000000002,0.29735069577423884,0.8227380592397442
2.4650000000000016,0.306529221095038,0.8629188838965766
2.4750000000000014,0.2869563629028938,0.8073371954986531
2.4850000000000017,0.296737522208551,0.8384795306842839
2.495000000000002,0.2919382372495157,0.8237854198534379
