Q,I,S
0.505,0.22899361531302861,0.3244088159190417
0.515,0.1399895873939926,0.1961227271589674
0.525,0.2221386201201501,0.32023029202104447
0.535,0.27831811796097067,0.4035772919420462
0.545,0.30759465946709175,0.44791700358185765
0.555,0.15635216633821097,0.2217331016221947
0.5650000000000001,0.3020599876699568,0.4435130099152938
0.5750000000000001,0.22623985674302108,0.3251114414925244
0.5850000000000001,0.36463344048963114,0.5343997314065492
0.5950000000000001,0.36699914844030224,0.5323248384115331
0.6050000000000001,0.36475782686421515,0.5308076397732215
0.6150000000000001,0.9301960715582754,1.3771113115000622
0.6250000000000001,0.4857869544293123,0.7213165699288533
0.6350000000000001,0.5273284340261725,0.7795374908903265
0.6450000000000001,0.25429249998385633,0.37434686365021136
0.6550000000000001,0.534321473662817,0.7994570955674619
0.6650000000000001,0.32565896449228127,0.4847040290276167
0.6750000000000002,0.4609118891099875,0.6894485637204769
0.6850000000000002,0.6131436944167412,0.9307757334117125
0.6950000000000002,0.7955404665429441,1.2047536838077715
0.7050000000000002,0.40434918212001764,0.606252548254197
0.7150000000000002,0.8390882587774982,1.2761209565269362
0.7250000000000002,0.559530053345092,0.8456738799060142
0.7350000000000002,0.37996592814497254,0.5638153423716821
0.7450000000000002,0.5369307833353946,0.8204460495060875
0.7550000000000002,0.610120377101138,0.9358937107780025
0.7650000000000002,0.7023981952467615,1.0737757013130125
0.7750000000000002,0.8015552164660257,1.2386379416395734
0.7850000000000003,0.7566338499960187,1.1779732240138772
0.7950000000000003,0.6662190559138261,1.0246300278334912
0.8050000000000003,0.4401786138411319,0.6654601187423724
0.8150000000000003,0.5816582692686223,0.9005701352502452
0.8250000000000003,0.9118216791715528,1.4365366164662081
0.8350000000000003,0.6838348754222665,1.0661529367596572
0.8450000000000003,0.4381458490974761,0.6683465431090754
0.8550000000000003,0.625555005443765,0.9724763198806029
0.8650000000000003,0.7068957332205289,1.1060286511156385
0.8750000000000003,0.7592384637928573,1.1892419959370781
0.8850000000000003,0.557697727730406,0.8627855009110668
0.8950000000000004,0.4235434370555817,0.6549432890883609
0.9050000000000004,0.5088651127794175,0.7769751469677206
0.9150000000000004,0.6131936683849813,0.9311888616577056
0.9250000000000004,0.5513825515373447,0.8541635060276471
0.9350000000000004,0.5350021968969196,0.8358389828349526
0.9450000000000004,0.4555565571964196,0.7124574868254324
0.9550000000000004,0.43976948301020624,0.6644263252667766
0.9650000000000004,0.5555062245207992,0.8520825734532668
0.9750000000000004,0.6604009329882465,1.0240890894193002
0.9850000000000004,0.8332098971027064,1.3299987712285668
0.9950000000000004,0.5663323809074856,0.8603372676194171
1.0050000000000003,0.5709187128826319,0.8859833180557172
1.0150000000000003,0.48181159324708356,0.7355186745412319
1.0250000000000004,0.5904695233534092,0.8900767991017451
1.0350000000000004,0.5235249486639868,0.7891301316142206
1.0450000000000004,0.5725719945810647,0.9077698419823061
1.0550000000000004,0.6880871678913237,1.0329544258326189
1.0650000000000004,0.749590496427882,1.1384748280890198
1.0750000000000004,0.7277308489633892,1.1515266958711399
1.0850000000000004,0.6834534826258749,1.0469378140733736
1.0950000000000004,0.4997279289324832,0.751538725886764
1.1050000000000004,0.6014502237666078,0.9282066941315258
1.1150000000000004,0.6096217139970078,0.9236713912299193
1.1250000000000004,0.5553874585428763,0.835527711342997
1.1350000000000005,0.5897714240915687,0.892582242718188
1.1450000000000005,0.5722987231213503,0.8640578849770689
1.1550000000000005,0.7502111886721936,1.111690736786553
1.1650000000000005,0.6171165147235419,0.8948814756150457
1.1750000000000005,0.7023613161183535,1.0692706535857823
1.1850000000000005,0.918103791048979,1.437609795440366
1.1950000000000005,0.7147054087108803,1.1220168545785407
1.2050000000000005,0.7364264824957503,1.1584696450816154
1.2150000000000005,0.7151780877824212,1.1007018209724853
1.2250000000000005,0.599862576327845,0.9117220282261824
1.2350000000000005,0.6237046140715646,0.9451969168638269
1.2450000000000006,0.5640569869201825,0.8392294470849847
1.2550000000000006,0.6625540115784044,1.024081418476155
1.2650000000000006,0.6115914681526198,0.9804037871631219
1.2750000000000006,0.7331314549305961,1.149284079914872
1.2850000000000006,0.7429859578483731,1.1588095937352172
1.2950000000000006,0.7540828362658251,1.197804638110077
1.3050000000000006,0.7310542710670652,1.1805036458867117
1.3150000000000006,0.6635488108277062,0.9879442549476956
1.3250000000000006,0.7549182743017849,1.1961792000341767
1.3350000000000006,0.7679073521202553,1.2686540933706403
1.3450000000000006,0.6569655341392872,1.047026117694415
1.3550000000000006,0.7977161300472225,1.2977162543298653
1.3650000000000007,0.784640187186202,1.3003414771102564
1.3750000000000007,0.7592123074158471,1.2652257816529808
1.3850000000000007,0.7373548308222637,1.2257522478573826
1.3950000000000007,0.647377990009195,1.0306434525142287
1.4050000000000007,0.6941289166167107,1.1460024355970002
1.4150000000000007,0.8075464184312495,1.384221015538751
1.4250000000000007,0.7139127214556982,1.1914461640595169
1.4350000000000007,0.7299544176827613,1.2616550528458172
1.4450000000000007,0.752732631078685,1.3244956917279713
1.4550000000000007,0.7833755153869743,1.3903152183841834
1.4650000000000007,0.7473187821043163,1.316354588269407
1.4750000000000008,0.7268599508247681,1.292638987753949
1.4850000000000008,0.6880316347162919,1.2205592101091052
1.4950000000000008,0.6494676106886424,1.151612384689623
1.5050000000000008,0.7651590994732713,1.4205840973039823
1.5150000000000008,0.6944400117489281,1.2652232739837612
1.5250000000000008,0.6053481939699346,1.1032910602430415
1.5350000000000008,0.6328193552625876,1.1624298244386966
1.5450000000000008,0.7045672990296394,1.3231159875241885
1.5550000000000008,0.6156632673310276,1.1260395584608578
1.5650000000000008,0.5496998843150531,1.0118540571581498
1.5750000000000008,0.6056151161243379,1.1417528911116324
1.5850000000000009,0.6156530340878391,1.1387626877956214
1.5950000000000009,0.6026610082262828,1.123002803398214
1.6050000000000009,0.6281915186270305,1.1691686949168552
1.6150000000000009,0.5524392228991094,1.0519921159486936
1.6250000000000009,0.5080050324816788,0.962350764694075
1.635000000000001,0.5026238754466615,0.9488104174136112
1.645000000000001,0.5604586586229068,1.0703739326080497
1.655000000000001,0.5279995278343149,1.0319023881745049
1.665000000000001,0.4887882633243762,0.960576639307413
1.675000000000001,0.5164515908245038,1.0294951544350794
1.685000000000001,0.4840536692060373,0.9599023422853631
1.695000000000001,0.46121633373640913,0.9298008569681672
1.705000000000001,0.5363647196106713,1.081980244852922
1.715000000000001,0.49208394564413893,0.9880912805026797
1.725000000000001,0.47623910029403876,0.960988800674116
1.735000000000001,0.48701739882971007,0.992501280047631
1.745000000000001,0.49243088267297336,1.0070887839408675
1.755000000000001,0.46714367238593163,0.9457350520718818
1.765000000000001,0.47535972487704875,0.976928637081097
1.775000000000001,0.5069785653606873,1.0561451386489753
1.785000000000001,0.4706451389685674,0.9887666894089899
1.795000000000001,0.45979869890838393,0.9755744191106609
1.805000000000001,0.4368474770504752,0.9132982685004662
1.815000000000001,0.44243488059500397,0.9372114138535464
1.825000000000001,0.439555782111242,0.9245662435820504
1.835000000000001,0.4193711852316555,0.8878992614634719
1.845000000000001,0.419117315749729,0.9067483792907624
1.855000000000001,0.39577024228131436,0.848168688886693
1.865000000000001,0.40256950769853395,0.8512330514035257
1.875000000000001,0.39838193060440225,0.8726501250587552
1.8850000000000011,0.39173246851713056,0.8417938019621792
1.8950000000000011,0.3890765621067838,0.8303992492353455
1.9050000000000011,0.38397683307072317,0.8375294928085923
1.9150000000000011,0.36079788408017743,0.7875033612169766
1.9250000000000012,0.372899314118183,0.8024120163556312
1.9350000000000012,0.3700216925517256,0.822389491657486
1.9450000000000012,0.36383810586869786,0.8078731330600198
1.9550000000000012,0.3769840837503101,0.846933452234608
1.9650000000000012,0.34680223316425085,0.7850786233341851
1.9750000000000012,0.3906411806312561,0.8791838132452062
1.9850000000000012,0.36884137492809854,0.8200003560684513
1.9950000000000012,0.35365146424180843,0.8036063798816889
2.0050000000000012,0.35117315428221074,0.8022098951713778
2.0150000000000015,0.33528961127147255,0.7412109630042664
2.0250000000000012,0.3399682040839287,0.7560756252645402
2.035000000000001,0.3640291165745587,0.834793353507893
2.0450000000000013,0.332828208453824,0.754749875747957
2.0550000000000015,0.34712710612555053,0.7952975765786208
2.0650000000000013,0.35404202276313074,0.8184515005844626
2.075000000000001,0.34045632419915206,0.7902150165484609
2.0850000000000013,0.3398150542014049,0.7870985639637084
2.0950000000000015,0.3289756190478397,0.7541526830910309
2.1050000000000013,0.3401957014342612,0.7797908756241679
2.115000000000001,0.3320468042051469,0.7697265929070449
2.1250000000000013,0.3426637777906694,0.798577538157504
2.1350000000000016,0.3278814484345462,0.7762497950277528
2.1450000000000014,0.3327309718731116,0.789268425669385
2.155000000000001,0.3452390591054973,0.8241502830612496
2.1650000000000014,0.34637048484297317,0.8318473502936636
2.1750000000000016,0.3437346510157325,0.8299115739709758
2.1850000000000014,0.33841031507782865,0.8230127325408135
2.195000000000001,0.33798711371259926,0.8184634743204038
2.2050000000000014,0.32821944401653685,0.8067210569131112
2.2150000000000016,0.3206399058993201,0.7979431364042622
2.2250000000000014,0.3152089252816738,0.7755184371486018
2.235000000000001,0.31853365053260285,0.7842782656270183
2.2450000000000014,0.3155264377785225,0.7759964146231401
2.2550000000000017,0.3112341011692957,0.7638113324033597
2.2650000000000015,0.3178243987495575,0.792558018772955
2.2750000000000012,0.3082885003550973,0.7776720659749575
2.2850000000000015,0.31334942613597655,0.7841719282947693
2.2950000000000017,0.31206435297455254,0.79069793025454
2.3050000000000015,0.3105077660673447,0.7757291924465921
2.3150000000000013,0.3070860143580476,0.7816623577324179
2.3250000000000015,0.30742423478018416,0.784881963739452
2.3350000000000017,0.3023353017369591,0.785360962334983
2.3450000000000015,0.2983371642818218,0.7727391223023125
2.3550000000000013,0.30728281134134644,0.8044365302953415
2.3650000000000015,0.30452783691309593,0.8082159699969529
2.3750000000000018,0.30101196604586666,0.8038511018361696
2.3850000000000016,0.2954993359539831,0.78864818275572
2.3950000000000014,0.28856310570667293,0.780680105823306
2.4050000000000016,0.29475699997814564,0.8005847657549421
2.415000000000002,0.2962692489443594,0.8062788421226605
2.4250000000000016,0.28041745263941664,0.771419278924066
2.4350000000000014,0.28631207213378856,0.7832658932846762
2.4450000000000016,0.29041320726821157,0.8051469872129884
2.455000000000002,0.2910063659570516,0.8102709133131205
2.4650000000000016,0.2948577647588407,0.8222159994577739
2.4750000000000014,0.28571201006114694,0.797332457786998
2.4850000000000017,0.2915054788472914,0.8257661093460661
2.495000000000002,0.2864783830425622,0.8203617829737289
